id,X,Y,Z,o_X,o_Y,o_Z,
10,2.140582323074341,-4.556124210357666,0.06399998813867569,1.5707964897155762,1.0886425982903347e-08,-0.08038931339979172,
20,2.1420671939849854,-4.53682804107666,0.06399999558925629,1.570796251296997,-3.303399154219733e-08,-0.07100158929824829,
30,2.143378973007202,-4.517519474029541,0.06399999558925629,1.570796251296997,5.344715248156717e-08,-0.06267872452735901,
40,2.1445372104644775,-4.498198986053467,0.06399999558925629,1.5707964897155762,-2.3122762371485805e-08,-0.0552477091550827,
50,2.145556926727295,-4.478870868682861,0.06399998813867569,1.570796251296997,5.3709534597601305e-08,-0.04854951053857803,
60,2.146451950073242,-4.459535598754883,0.06399999558925629,1.5707963705062866,5.38204929512176e-08,-0.042498961091041565,
70,2.1472339630126953,-4.440194129943848,0.06399999558925629,1.5707963705062866,-3.303421181044541e-08,-0.036969445645809174,
80,2.1479122638702393,-4.420849323272705,0.06399999558925629,1.5707963705062866,-1.1771137398142173e-09,-0.031902652233839035,
90,2.14849591255188,-4.401501655578613,0.06399999558925629,1.5707963705062866,-2.4785778762748123e-08,-0.027271844446659088,
100,2.1489923000335693,-4.382150650024414,0.06399999558925629,1.5707963705062866,-3.303421536315909e-08,-0.022987596690654755,
110,2.1494083404541016,-4.362797260284424,0.06399999558925629,1.570796251296997,-3.303421536315909e-08,-0.019024232402443886,
120,2.149749755859375,-4.343441963195801,0.06399999558925629,1.570796251296997,5.4309126085172466e-08,-0.015343071892857552,
130,2.15002179145813,-4.3240861892700195,0.06399999558925629,1.5707964897155762,3.012564775417559e-08,-0.011937074363231659,
140,2.1502296924591064,-4.3047285079956055,0.06399999558925629,1.5707964897155762,-3.303398088405629e-08,-0.008749953471124172,
150,2.1503772735595703,-4.28537130355835,0.06399999558925629,1.570796251296997,-3.303398798948365e-08,-0.005786480847746134,
160,2.1504697799682617,-4.266012668609619,0.06399999558925629,1.570796251296997,-3.303421891587277e-08,-0.0030199121683835983,
170,2.1505093574523926,-4.2466535568237305,0.06399998813867569,1.5707964897155762,-1.6150352166732773e-09,-0.00045055896043777466,
180,2.150500774383545,-4.227294921875,0.06399998813867569,1.5707963705062866,6.112237826982891e-08,0.0019422787008807063,
190,2.150446653366089,-4.2079362869262695,0.06399999558925629,1.5707963705062866,-1.6802916835700898e-09,0.0041944957338273525,
200,2.1503498554229736,-4.188576698303223,0.06399999558925629,1.570796251296997,-3.303398798948365e-08,0.006260690279304981,
210,2.1502139568328857,-4.169217586517334,0.06399999558925629,1.5707963705062866,-3.303398798948365e-08,0.008218292146921158,
220,2.1500422954559326,-4.149859428405762,0.06399999558925629,1.570796251296997,2.3478834876300425e-08,0.009999399073421955,
230,2.149836778640747,-4.130500316619873,0.06399999558925629,1.5707963705062866,-3.303398798948365e-08,0.011643598787486553,
240,2.1496009826660156,-4.111142158508301,0.06399999558925629,1.5707963705062866,2.3576376406708732e-08,0.0131151108071208,
250,2.149336814880371,-4.091783046722412,0.06399999558925629,1.570796251296997,-3.303421536315909e-08,0.014460987411439419,
260,2.1490478515625,-4.072425842285156,0.06399999558925629,1.5707964897155762,2.9350076147238724e-08,0.015644608065485954,
270,2.148737907409668,-4.0530686378479,0.06399998813867569,1.5707963705062866,-1.8562789083631515e-09,0.016651038080453873,
280,2.148408889770508,-4.03371000289917,0.06399999558925629,1.5707963705062866,-1.867647592135313e-09,0.01746438816189766,
290,2.148066520690918,-4.014353275299072,0.06399999558925629,1.5707963705062866,-3.303399154219733e-08,0.0180763341486454,
300,2.1477134227752686,-3.9949960708618164,0.06399999558925629,1.570796251296997,-3.303421536315909e-08,0.01841350644826889,
310,2.147355794906616,-3.9756381511688232,0.06399999558925629,1.5707964897155762,-1.8819719116436318e-09,0.018472343683242798,
320,2.1469998359680176,-3.956280469894409,0.06399999558925629,1.5707963705062866,2.9279817681526765e-08,0.01811288297176361,
330,2.1466546058654785,-3.9369213581085205,0.06399999558925629,1.5707963705062866,2.3704846086047837e-08,0.01724461279809475,
340,2.146331310272217,-3.9175615310668945,0.06399999558925629,1.5707963705062866,-3.303398798948365e-08,0.01563381962478161,
350,2.1460461616516113,-3.898200273513794,0.06399999558925629,1.570796251296997,-3.303399154219733e-08,0.012860916554927826,
360,2.1458263397216797,-3.8788368701934814,0.06399999558925629,1.570796251296997,2.3421764083764174e-08,0.008182178251445293,
370,2.145719289779663,-3.859468460083008,0.06399999558925629,1.5707963705062866,-3.303399154219733e-08,-0.00023483490804210305,
380,2.1458282470703125,-3.8400931358337402,0.06399999558925629,1.5707966089248657,9.364907782583032e-08,-0.018458161503076553,
390,2.1465389728546143,-3.820674419403076,0.06399999558925629,1.5707963705062866,-3.303398798948365e-08,-0.10415738821029663,
400,2.1497743129730225,-3.801452398300171,0.06399999558925629,1.5707963705062866,-3.303398443676997e-08,-0.2831166088581085,
410,2.1567137241363525,-3.7832090854644775,0.06399999558925629,1.5707963705062866,-3.303398443676997e-08,-0.5079454183578491,
420,2.167745590209961,-3.7670934200286865,0.06399998813867569,1.570796251296997,-3.303398798948365e-08,-0.7569383978843689,
430,2.1823618412017822,-3.7541565895080566,0.06399999558925629,1.5707963705062866,-3.303398443676997e-08,-0.9889627695083618,
440,2.199395179748535,-3.7446751594543457,0.06399999558925629,1.5707963705062866,-3.303398088405629e-08,-1.176871418952942,
450,2.2177631855010986,-3.7382278442382812,0.06399999558925629,1.5707963705062866,-3.3034208257731734e-08,-1.3191890716552734,
460,2.2367799282073975,-3.7341840267181396,0.06399999558925629,1.570796251296997,-3.303398798948365e-08,-1.4256975650787354,
470,2.256080150604248,-3.7319867610931396,0.06399999558925629,1.5707963705062866,-3.303398088405629e-08,-1.5063517093658447,
480,2.2754745483398438,-3.7312090396881104,0.06399999558925629,1.5707963705062866,-3.303421181044541e-08,-1.5684425830841064,
490,2.2948718070983887,-3.7315304279327393,0.06399999558925629,1.570796251296997,-3.303398798948365e-08,-1.616693139076233,
500,2.31422758102417,-3.732703924179077,0.06399998813867569,1.570796251296997,-3.303399154219733e-08,-1.6538387537002563,
510,2.333526134490967,-3.7345211505889893,0.06399999558925629,1.5707963705062866,-3.303398443676997e-08,-1.6807200908660889,
520,2.352766513824463,-3.73677396774292,0.06399999558925629,1.5707963705062866,-3.303398443676997e-08,-1.695124864578247,
530,2.3719706535339355,-3.739161252975464,0.06399999558925629,1.5707963705062866,-3.303421181044541e-08,-1.6840893030166626,
540,2.3911828994750977,-3.740680456161499,0.06399999558925629,1.5707963705062866,-3.303398443676997e-08,-1.5924396514892578,
550,2.4106149673461914,-3.742292642593384,0.06399999558925629,1.5707963705062866,-3.303375351038085e-08,-1.779151201248169,
560,2.4292283058166504,-3.748354434967041,0.06399998813867569,1.570796251296997,-3.303398798948365e-08,-2.101644992828369,
570,2.4442834854125977,-3.7609105110168457,0.06399998813867569,1.5707963705062866,-3.303398798948365e-08,-2.5493905544281006,
580,2.4526898860931396,-3.778576135635376,0.06399999558925629,1.570796251296997,-3.303398798948365e-08,-2.9074058532714844,
590,2.4556007385253906,-3.797854423522949,0.06399999558925629,1.570796251296997,-3.303399154219733e-08,-3.105318069458008,
600,2.4554669857025146,-3.817291259765625,0.06399999558925629,1.5707963705062866,-3.303398798948365e-08,3.077488422393799,
610,2.4538354873657227,-3.8366189002990723,0.06399998813867569,1.5707963705062866,-3.303398798948365e-08,3.0334877967834473,
620,2.4516608715057373,-3.855860710144043,0.06399999558925629,1.570796251296997,-3.303398798948365e-08,3.0300240516662598,
630,2.4496984481811523,-3.8750901222229004,0.06399999558925629,1.570796251296997,-3.303398798948365e-08,3.066521406173706,
640,2.4487907886505127,-3.894350528717041,0.06399999558925629,1.5707963705062866,-3.303398443676997e-08,-3.1256022453308105,
650,2.45021390914917,-3.9134838581085205,0.06399999558925629,1.5707963705062866,-3.303398798948365e-08,-2.938892364501953,
660,2.45613956451416,-3.931532859802246,0.06399999558925629,1.5707964897155762,-3.303398443676997e-08,-2.5828213691711426,
670,2.4687538146972656,-3.945493459701538,0.06399998813867569,1.5707963705062866,-3.303398443676997e-08,-2.1089649200439453,
680,2.485933780670166,-3.954160213470459,0.06399999558925629,1.570796251296997,-3.303422246858645e-08,-1.9823076725006104,
690,2.5038294792175293,-3.96134877204895,0.06399999558925629,1.5707963705062866,-3.303398443676997e-08,-1.8981877565383911,
700,2.522289276123047,-3.9668662548065186,0.06399999558925629,1.570796251296997,-3.303398798948365e-08,-1.7934808731079102,
710,2.541231632232666,-3.9702670574188232,0.06399999558925629,1.570796251296997,-3.303399154219733e-08,-1.6668297052383423,
720,2.560439109802246,-3.9711012840270996,0.06399999558925629,1.5707963705062866,-3.303398443676997e-08,-1.5210124254226685,
730,2.5795412063598633,-3.969043493270874,0.06399999558925629,1.570796251296997,-3.303421536315909e-08,-1.3644946813583374,
740,2.5980918407440186,-3.964026689529419,0.06399999558925629,1.570796251296997,-3.303421536315909e-08,-1.210123062133789,
750,2.615694046020508,-3.9562854766845703,0.06399999558925629,1.5707963705062866,-3.303421536315909e-08,-1.0692209005355835,
760,2.632122755050659,-3.9462530612945557,0.06399998813867569,1.570796251296997,-3.303398443676997e-08,-0.947803795337677,
770,2.6465179920196533,-3.933784246444702,0.06399999558925629,1.5707963705062866,-3.303398443676997e-08,-0.6452751755714417,
780,2.656454563140869,-3.917452096939087,0.06399999558925629,1.570796251296997,-3.303398798948365e-08,-0.4057939052581787,
790,2.662936210632324,-3.8993632793426514,0.06399999558925629,1.5707963705062866,-3.303421536315909e-08,-0.25181812047958374,
800,2.666902780532837,-3.880519390106201,0.06399999558925629,1.5707963705062866,-3.303398798948365e-08,-0.1380733698606491,
810,2.6688616275787354,-3.861344575881958,0.06399999558925629,1.5707964897155762,-3.303398443676997e-08,-0.0427115261554718,
820,2.6690447330474854,-3.8420658111572266,0.06399999558925629,1.5707963705062866,-3.303421536315909e-08,0.04684248939156532,
830,2.6674890518188477,-3.8228514194488525,0.06399999558925629,1.570796251296997,-3.303399154219733e-08,0.14076703786849976,
840,2.664045572280884,-3.803900718688965,0.06399999558925629,1.5707963705062866,-3.303421891587277e-08,0.25167927145957947,
850,2.658318281173706,-3.7855517864227295,0.06399999558925629,1.5707963705062866,-3.303398443676997e-08,0.4019712805747986,
860,2.6494898796081543,-3.7685818672180176,0.06399999558925629,1.5707963705062866,-3.303398798948365e-08,0.6426247358322144,
870,2.6361470222473145,-3.755204200744629,0.06399999558925629,1.5707963705062866,-3.303421536315909e-08,1.071736216545105,
880,2.6186940670013428,-3.7472305297851562,0.06399999558925629,1.570796251296997,-3.303399154219733e-08,1.2506333589553833,
890,2.6001429557800293,-3.7421298027038574,0.06399999558925629,1.5707963705062866,-3.303398798948365e-08,1.3806675672531128,
900,2.5810916423797607,-3.7391836643218994,0.06399999558925629,1.5707963705062866,-3.303398798948365e-08,1.4724196195602417,
910,2.5618391036987305,-3.737783908843994,0.06399998813867569,1.570796251296997,-3.303421891587277e-08,1.5370763540267944,
920,2.54252028465271,-3.73748517036438,0.06399999558925629,1.5707963705062866,-3.303398798948365e-08,1.5828289985656738,
930,2.523193120956421,-3.7379684448242188,0.06399999558925629,1.5707963705062866,-3.303399154219733e-08,1.6151729822158813,
940,2.5038790702819824,-3.7390010356903076,0.06399999558925629,1.5707963705062866,-3.303421536315909e-08,1.6377322673797607,
950,2.4845826625823975,-3.7404141426086426,0.06399999558925629,1.5707963705062866,-3.303399154219733e-08,1.6529309749603271,
960,2.465301752090454,-3.742077350616455,0.06399999558925629,1.570796251296997,-3.303398798948365e-08,1.662427306175232,
970,2.4460291862487793,-3.7438902854919434,0.06399999558925629,1.5707963705062866,-3.3033760615808205e-08,1.6673816442489624,
980,2.4267609119415283,-3.745771884918213,0.06399998813867569,1.570796251296997,-3.303421891587277e-08,1.6686264276504517,
990,2.407491445541382,-3.7476534843444824,0.06399999558925629,1.5707963705062866,-3.3033764168521884e-08,1.6667704582214355,
1000,2.388212203979492,-3.749481439590454,0.06399999558925629,1.5707963705062866,-3.303421891587277e-08,1.662266492843628,
1010,2.368922710418701,-3.7512049674987793,0.06399999558925629,1.570796251296997,-3.303399154219733e-08,1.6554598808288574,
1020,2.349618434906006,-3.752782106399536,0.06399999558925629,1.5707963705062866,-3.303421536315909e-08,1.6466175317764282,
1030,2.33029842376709,-3.7541756629943848,0.06399999558925629,1.570796251296997,-3.303398798948365e-08,1.6359437704086304,
1040,2.310962438583374,-3.755350351333618,0.06399999558925629,1.5707963705062866,-3.303398798948365e-08,1.6236107349395752,
1050,2.291612148284912,-3.7562756538391113,0.06399999558925629,1.5707963705062866,-3.303398798948365e-08,1.6097524166107178,
1060,2.272278070449829,-3.7570230960845947,0.06399998813867569,1.5707963705062866,-3.303398798948365e-08,1.6246180534362793,
1070,2.252938747406006,-3.75807785987854,0.06399999558925629,1.570796251296997,-3.303398798948365e-08,1.6152870655059814,
1080,2.2335429191589355,-3.7586312294006348,0.06399999558925629,1.570796251296997,-3.303398798948365e-08,1.5634968280792236,
1090,2.2141218185424805,-3.757878541946411,0.06399999558925629,1.5707963705062866,-3.303421891587277e-08,1.4674031734466553,
1100,2.1948773860931396,-3.754838228225708,0.06399999558925629,1.570796251296997,-3.303421536315909e-08,1.3056563138961792,
1110,2.176543712615967,-3.748063087463379,0.06399999558925629,1.570796251296997,-3.303399154219733e-08,1.0397201776504517,
1120,2.161137342453003,-3.7359678745269775,0.06399999558925629,1.570796251296997,-3.3033760615808205e-08,0.6630907654762268,
1130,2.1514217853546143,-3.7189767360687256,0.06399999558925629,1.5707963705062866,-3.303398443676997e-08,0.2982499301433563,
1140,2.1475656032562256,-3.6998848915100098,0.06399999558925629,1.570796251296997,-3.3033995094911006e-08,0.11028635501861572,
1150,2.1456966400146484,-3.6805858612060547,0.06399999558925629,1.570796251296997,-3.303421536315909e-08,0.07585764676332474,
1160,2.1444222927093506,-3.6612465381622314,0.06399999558925629,1.570796251296997,-3.303421891587277e-08,0.05041058361530304,
1170,2.143592596054077,-3.64188814163208,0.06399999558925629,1.5707963705062866,-3.303398798948365e-08,0.031118052080273628,
1180,2.1431021690368652,-3.6225197315216064,0.06399999558925629,1.5707963705062866,-3.303398798948365e-08,0.016254151239991188,
1190,2.1428747177124023,-3.6031508445739746,0.06399999558925629,1.570796251296997,-3.303399154219733e-08,0.00478192837908864,
1200,2.142848253250122,-3.5837817192077637,0.06399998813867569,1.5707963705062866,-3.303398443676997e-08,-0.003854939714074135,
1210,2.142970085144043,-3.564415454864502,0.06399998813867569,1.570796251296997,-3.303422246858645e-08,-0.009963800199329853,
1220,2.1431939601898193,-3.545053005218506,0.06399999558925629,1.5707963705062866,-3.3033760615808205e-08,-0.013621849939227104,
1230,2.1434707641601562,-3.525693655014038,0.06399998813867569,1.570796251296997,-3.303399154219733e-08,-0.014735504984855652,
1240,2.143747329711914,-3.506335973739624,0.06399999558925629,1.5707963705062866,-3.303398443676997e-08,-0.012687970884144306,
1250,2.1439566612243652,-3.4869813919067383,0.06399999558925629,1.5707963705062866,-3.303398798948365e-08,-0.006399996113032103,
1260,2.144000291824341,-3.4676320552825928,0.06399998813867569,1.570796251296997,-3.303421891587277e-08,0.006728045176714659,
1270,2.144019365310669,-3.4482219219207764,0.06399999558925629,1.570796251296997,-3.303421536315909e-08,-0.0539361871778965,
1280,2.145986557006836,-3.4288558959960938,0.06399999558925629,1.5707963705062866,-3.303398443676997e-08,-0.19158534705638885,
1290,2.150953769683838,-3.4100000858306885,0.06399999558925629,1.570796251296997,-3.3033760615808205e-08,-0.3814297914505005,
1300,2.1597506999969482,-3.3925676345825195,0.06399999558925629,1.570796251296997,-3.303398798948365e-08,-0.6202511787414551,
1310,2.17254638671875,-3.377814531326294,0.06399998813867569,1.5707963705062866,-3.303398798948365e-08,-0.8693490624427795,
1320,2.188436985015869,-3.3665013313293457,0.06399999558925629,1.570796251296997,-3.303422246858645e-08,-1.079753041267395,
1330,2.2061469554901123,-3.358403205871582,0.06399999558925629,1.5707963705062866,-3.303398443676997e-08,-1.235299825668335,
1340,2.2247729301452637,-3.352816343307495,0.06399999558925629,1.5707963705062866,-3.303398088405629e-08,-1.3454513549804688,
1350,2.243830919265747,-3.3490710258483887,0.06399998813867569,1.5707963705062866,-3.303421181044541e-08,-1.423892617225647,
1360,2.263087749481201,-3.346665620803833,0.06399999558925629,1.570796251296997,-3.303421536315909e-08,-1.480961561203003,
1370,2.282431125640869,-3.345250129699707,0.06399999558925629,1.570796251296997,-3.303398798948365e-08,-1.5234901905059814,
1380,2.3018083572387695,-3.3445799350738525,0.06399998813867569,1.570796251296997,-3.303399154219733e-08,-1.5558136701583862,
1390,2.3211898803710938,-3.34447979927063,0.06399999558925629,1.5707961320877075,-3.303421891587277e-08,-1.5808522701263428,
1400,2.3405656814575195,-3.3448221683502197,0.06399999558925629,1.570796251296997,-3.303399154219733e-08,-1.6004122495651245,
1410,2.359920024871826,-3.3455042839050293,0.06399999558925629,1.5707963705062866,-3.303398443676997e-08,-1.608376383781433,
1420,2.3792619705200195,-3.346179723739624,0.06399998813867569,1.570796251296997,-3.303398798948365e-08,-1.6003574132919312,
1430,2.398606777191162,-3.3466761112213135,0.06399998813867569,1.5707963705062866,-3.303398798948365e-08,-1.5888793468475342,
1440,2.417952537536621,-3.346919298171997,0.06399999558925629,1.570796251296997,-3.303399154219733e-08,-1.5729548931121826,
1450,2.4372973442077637,-3.3468267917633057,0.06399999558925629,1.5707963705062866,-3.303398798948365e-08,-1.5539612770080566,
1460,2.456639289855957,-3.346370220184326,0.06399998813867569,1.5707963705062866,-3.303398088405629e-08,-1.5370060205459595,
1470,2.4759793281555176,-3.3456356525421143,0.06399999558925629,1.570796251296997,-3.303399154219733e-08,-1.5276942253112793,
1480,2.4953203201293945,-3.3447773456573486,0.06399999558925629,1.5707963705062866,-3.303421181044541e-08,-1.5256972312927246,
1490,2.514664649963379,-3.3439157009124756,0.06399999558925629,1.570796251296997,-3.303398798948365e-08,-1.5278542041778564,
1500,2.5340118408203125,-3.343109369277954,0.06399999558925629,1.570796251296997,-3.303421891587277e-08,-1.5315228700637817,
1510,2.5533628463745117,-3.3423781394958496,0.06399999558925629,1.570796251296997,-3.303421891587277e-08,-1.5354989767074585,
1520,2.57275390625,-3.3417580127716064,0.06399999558925629,1.5707963705062866,-3.303398798948365e-08,-1.582188367843628,
1530,2.5921945571899414,-3.343066692352295,0.06399999558925629,1.5707963705062866,-3.303398798948365e-08,-1.7472070455551147,
1540,2.6110687255859375,-3.34809947013855,0.06399999558925629,1.570796251296997,-3.303399154219733e-08,-1.9940078258514404,
1550,2.6278419494628906,-3.358177661895752,0.06399999558925629,1.570796251296997,-3.303421891587277e-08,-2.3220174312591553,
1560,2.6403512954711914,-3.3732142448425293,0.06399999558925629,1.570796251296997,-3.303398798948365e-08,-2.6451027393341064,
1570,2.647965431213379,-3.391186237335205,0.06399999558925629,1.5707963705062866,-3.303398443676997e-08,-2.880727529525757,
1580,2.6518149375915527,-3.4102730751037598,0.06399999558925629,1.5707963705062866,-3.303398443676997e-08,-3.0316152572631836,
1590,2.653197765350342,-3.429656982421875,0.06399999558925629,1.5707963705062866,-3.303398798948365e-08,-3.126035451889038,
1600,2.6530349254608154,-3.449064254760742,0.06399999558925629,1.570796251296997,-3.303399154219733e-08,3.099432945251465,
